# t[sec] Amplitude 
-7.5 0
-7.49988 -0.00153398
-7.49976 -0.00230097
-7.49963 -0.00306796
-7.49951 -0.00383494
-7.49939 -0.00460193
-7.49927 -0.00536891
-7.49915 -0.00613588
-7.49902 -0.00690286
-7.4989 -0.00766983
-7.49878 -0.00843679
-7.49866 -0.00920375
-7.49854 -0.00997071
-7.49841 -0.0107377
-7.49829 -0.0115046
-7.49817 -0.0122715
-7.49805 -0.0130385
-7.49792 -0.0138054
-7.4978 -0.0145723
-7.49768 -0.0153392
-7.49756 -0.0161061
-7.49744 -0.016873
-7.49731 -0.0176399
-7.49719 -0.0184067
-7.49707 -0.0191736
-7.49695 -0.0199404
-7.49683 -0.0207073
-7.4967 -0.0214741
-7.49658 -0.0222409
-7.49646 -0.0230077
-7.49634 -0.0237745
-7.49622 -0.0245412
-7.49609 -0.025308
-7.49597 -0.0260747
-7.49585 -0.0268414
-7.49573 -0.0276081
-7.49561 -0.0283748
-7.49548 -0.0291415
-7.49536 -0.0299082
-7.49524 -0.0306748
-7.49512 -0.0314414
-7.495 -0.032208
-7.49487 -0.0329746
-7.49475 -0.0337412
-7.49463 -0.0345077
-7.49451 -0.0352742
-7.49438 -0.0360407
-7.49426 -0.0368072
-7.49414 -0.0375737
-7.49402 -0.0383401
-7.4939 -0.0391065
-7.49377 -0.0398729
-7.49365 -0.0406393
-7.49353 -0.0414056
-7.49341 -0.042172
-7.49329 -0.0429383
-7.49316 -0.0437045
-7.49304 -0.0444708
-7.49292 -0.045237
-7.4928 -0.0460032
-7.49268 -0.0467693
-7.49255 -0.0475355
-7.49243 -0.0483016
-7.49231 -0.0490677
-7.49219 -0.0498337
-7.49207 -0.0505997
-7.49194 -0.0513657
-7.49182 -0.0521317
-7.4917 -0.0528976
-7.49158 -0.0536635
-7.49146 -0.0544294
-7.49133 -0.0551952
-7.49121 -0.055961
-7.49109 -0.0567268
-7.49097 -0.0574926
-7.49084 -0.0582583
-7.49072 -0.0590239
-7.4906 -0.0597896
-7.49048 -0.0605552
-7.49036 -0.0613207
-7.49023 -0.0620863
-7.49011 -0.0628518
-7.48999 -0.0636172
-7.48987 -0.0643826
-7.48975 -0.065148
-7.48962 -0.0659134
-7.4895 -0.0666787
-7.48938 -0.0674439
-7.48926 -0.0682091
-7.48914 -0.0689743
-7.48901 -0.0697395
-7.48889 -0.0705046
-7.48877 -0.0712696
-7.48865 -0.0720347
-7.48853 -0.0727996
-7.4884 -0.0735646
-7.48828 -0.0743295
-7.48816 -0.0750943
-7.48804 -0.0758591
-7.48792 -0.0766239
-7.48779 -0.0773886
-7.48767 -0.0781532
-7.48755 -0.0789179
-7.48743 -0.0796824
-7.4873 -0.080447
-7.48718 -0.0812114
-7.48706 -0.0819759
-7.48694 -0.0827403
-7.48682 -0.0835046
-7.48669 -0.0842689
-7.48657 -0.0850331
-7.48645 -0.0857973
-7.48633 -0.0865614
-7.48621 -0.0873255
-7.48608 -0.0880896
-7.48596 -0.0888536
-7.48584 -0.0896175
-7.48572 -0.0903814
-7.4856 -0.0911452
-7.48547 -0.091909
-7.48535 -0.0926727
-7.48523 -0.0934363
-7.48511 -0.0941999
-7.48499 -0.0949635
-7.48486 -0.095727
-7.48474 -0.0964904
-7.48462 -0.0972538
-7.4845 -0.0980171
-7.48438 -0.0987804
-7.48425 -0.0995436
-7.48413 -0.100307
-7.48401 -0.10107
-7.48389 -0.101833
-7.48376 -0.102596
-7.48364 -0.103359
-7.48352 -0.104122
-7.4834 -0.104884
-7.48328 -0.105647
-7.48315 -0.10641
-7.48303 -0.107172
-7.48291 -0.107935
-7.48279 -0.108697
-7.48267 -0.10946
-7.48254 -0.110222
-7.48242 -0.110984
-7.4823 -0.111747
-7.48218 -0.112509
-7.48206 -0.113271
-7.48193 -0.114033
-7.48181 -0.114795
-7.48169 -0.115557
-7.48157 -0.116319
-7.48145 -0.11708
-7.48132 -0.117842
-7.4812 -0.118604
-7.48108 -0.119365
-7.48096 -0.120127
-7.48083 -0.120888
-7.48071 -0.121649
-7.48059 -0.122411
-7.48047 -0.123172
-7.48035 -0.123933
-7.48022 -0.124694
-7.4801 -0.125455
-7.47998 -0.126216
-7.47986 -0.126977
-7.47974 -0.127737
-7.47961 -0.128498
-7.47949 -0.129259
-7.47937 -0.130019
-7.47925 -0.13078
-7.47913 -0.13154
-7.479 -0.1323
-7.47888 -0.133061
-7.47876 -0.133821
-7.47864 -0.134581
-7.47852 -0.135341
-7.47839 -0.136101
-7.47827 -0.13686
-7.47815 -0.13762
-7.47803 -0.13838
-7.47791 -0.139139
-7.47778 -0.139899
-7.47766 -0.140658
-7.47754 -0.141418
-7.47742 -0.142177
-7.47729 -0.142936
-7.47717 -0.143695
-7.47705 -0.144454
-7.47693 -0.145213
-7.47681 -0.145972
-7.47668 -0.14673
-7.47656 -0.147489
-7.47644 -0.148248
-7.47632 -0.149006
-7.4762 -0.149765
-7.47607 -0.150523
-7.47595 -0.151281
-7.47583 -0.152039
-7.47571 -0.152797
-7.47559 -0.153555
-7.47546 -0.154313
-7.47534 -0.155071
-7.47522 -0.155828
-7.4751 -0.156586
-7.47498 -0.157343
-7.47485 -0.158101
-7.47473 -0.158858
-7.47461 -0.159615
-7.47449 -0.160372
-7.47437 -0.161129
-7.47424 -0.161886
-7.47412 -0.162643
-7.474 -0.1634
-7.47388 -0.164157
-7.47375 -0.164913
-7.47363 -0.16567
-7.47351 -0.166426
-7.47339 -0.167182
-7.47327 -0.167938
-7.47314 -0.168694
-7.47302 -0.16945
-7.4729 -0.170206
-7.47278 -0.170962
-7.47266 -0.171718
-7.47253 -0.172473
-7.47241 -0.173229
-7.47229 -0.173984
-7.47217 -0.174739
-7.47205 -0.175494
-7.47192 -0.176249
-7.4718 -0.177004
-7.47168 -0.177759
-7.47156 -0.178514
-7.47144 -0.179268
-7.47131 -0.180023
-7.47119 -0.180777
-7.47107 -0.181532
-7.47095 -0.182286
-7.47083 -0.18304
-7.4707 -0.183794
-7.47058 -0.184548
-7.47046 -0.185301
-7.47034 -0.186055
-7.47021 -0.186809
-7.47009 -0.187562
-7.46997 -0.188315
-7.46985 -0.189069
-7.46973 -0.189822
-7.4696 -0.190575
-7.46948 -0.191328
-7.46936 -0.19208
-7.46924 -0.192833
-7.46912 -0.193586
-7.46899 -0.194338
-7.46887 -0.19509
-7.46875 -0.195843
-7.46863 -0.196595
-7.46851 -0.197347
-7.46838 -0.198098
-7.46826 -0.19885
-7.46814 -0.199602
-7.46802 -0.200353
-7.4679 -0.201105
-7.46777 -0.201856
-7.46765 -0.202607
-7.46753 -0.203358
-7.46741 -0.204109
-7.46729 -0.20486
-7.46716 -0.20561
-7.46704 -0.206361
-7.46692 -0.207111
-7.4668 -0.207862
-7.46667 -0.208612
-7.46655 -0.209362
-7.46643 -0.210112
-7.46631 -0.210862
-7.46619 -0.211611
-7.46606 -0.212361
-7.46594 -0.21311
-7.46582 -0.21386
-7.4657 -0.214609
-7.46558 -0.215358
-7.46545 -0.216107
-7.46533 -0.216856
-7.46521 -0.217604
-7.46509 -0.218353
-7.46497 -0.219101
-7.46484 -0.21985
-7.46472 -0.220598
-7.4646 -0.221346
-7.46448 -0.222094
-7.46436 -0.222841
-7.46423 -0.223589
-7.46411 -0.224337
-7.46399 -0.225084
-7.46387 -0.225831
-7.46375 -0.226578
-7.46362 -0.227325
-7.4635 -0.228072
-7.46338 -0.228819
-7.46326 -0.229565
-7.46313 -0.230312
-7.46301 -0.231058
-7.46289 -0.231804
-7.46277 -0.23255
-7.46265 -0.233296
-7.46252 -0.234042
-7.4624 -0.234788
-7.46228 -0.235533
-7.46216 -0.236278
-7.46204 -0.237024
-7.46191 -0.237769
-7.46179 -0.238514
-7.46167 -0.239258
-7.46155 -0.240003
-7.46143 -0.240748
-7.4613 -0.241492
-7.46118 -0.242236
-7.46106 -0.24298
-7.46094 -0.243724
-7.46082 -0.244468
-7.46069 -0.245212
-7.46057 -0.245955
-7.46045 -0.246698
-7.46033 -0.247442
-7.46021 -0.248185
-7.46008 -0.248928
-7.45996 -0.24967
-7.45984 -0.250413
-7.45972 -0.251155
-7.45959 -0.251898
-7.45947 -0.25264
-7.45935 -0.253382
-7.45923 -0.254124
-7.45911 -0.254866
-7.45898 -0.255607
-7.45886 -0.256349
-7.45874 -0.25709
-7.45862 -0.257831
-7.4585 -0.258572
-7.45837 -0.259313
-7.45825 -0.260054
-7.45813 -0.260794
-7.45801 -0.261534
-7.45789 -0.262275
-7.45776 -0.263015
-7.45764 -0.263755
-7.45752 -0.264494
-7.4574 -0.265234
-7.45728 -0.265973
-7.45715 -0.266713
-7.45703 -0.267452
-7.45691 -0.268191
-7.45679 -0.26893
-7.45667 -0.269668
-7.45654 -0.270407
-7.45642 -0.271145
-7.4563 -0.271883
-7.45618 -0.272621
-7.45605 -0.273359
-7.45593 -0.274097
-7.45581 -0.274834
-7.45569 -0.275572
-7.45557 -0.276309
-7.45544 -0.277046
-7.45532 -0.277783
-7.4552 -0.27852
-7.45508 -0.279256
-7.45496 -0.279993
-7.45483 -0.280729
-7.45471 -0.281465
-7.45459 -0.282201
-7.45447 -0.282937
-7.45435 -0.283672
-7.45422 -0.284408
-7.4541 -0.285143
-7.45398 -0.285878
-7.45386 -0.286613
-7.45374 -0.287347
-7.45361 -0.288082
-7.45349 -0.288816
-7.45337 -0.289551
-7.45325 -0.290285
-7.45313 -0.291019
-7.453 -0.291752
-7.45288 -0.292486
-7.45276 -0.293219
-7.45264 -0.293952
-7.45251 -0.294685
-7.45239 -0.295418
-7.45227 -0.296151
-7.45215 -0.296883
-7.45203 -0.297616
-7.4519 -0.298348
-7.45178 -0.29908
-7.45166 -0.299812
-7.45154 -0.300543
-7.45142 -0.301275
-7.45129 -0.302006
-7.45117 -0.302737
-7.45105 -0.303468
-7.45093 -0.304199
-7.45081 -0.304929
-7.45068 -0.30566
-7.45056 -0.30639
-7.45044 -0.30712
-7.45032 -0.30785
-7.4502 -0.308579
-7.45007 -0.309309
-7.44995 -0.310038
-7.44983 -0.310767
-7.44971 -0.311496
-7.44958 -0.312225
-7.44946 -0.312953
-7.44934 -0.313682
-7.44922 -0.31441
-7.4491 -0.315138
-7.44897 -0.315866
-7.44885 -0.316593
-7.44873 -0.317321
-7.44861 -0.318048
-7.44849 -0.318775
-7.44836 -0.319502
-7.44824 -0.320229
-7.44812 -0.320955
-7.448 -0.321682
-7.44788 -0.322408
-7.44775 -0.323134
-7.44763 -0.323859
-7.44751 -0.324585
-7.44739 -0.32531
-7.44727 -0.326035
-7.44714 -0.32676
-7.44702 -0.327485
-7.4469 -0.32821
-7.44678 -0.328934
-7.44666 -0.329658
-7.44653 -0.330382
-7.44641 -0.331106
-7.44629 -0.33183
-7.44617 -0.332553
-7.44604 -0.333277
-7.44592 -0.334
-7.4458 -0.334722
-7.44568 -0.335445
-7.44556 -0.336168
-7.44543 -0.33689
-7.44531 -0.337612
-7.44519 -0.338334
-7.44507 -0.339055
-7.44495 -0.339777
-7.44482 -0.340498
-7.4447 -0.341219
-7.44458 -0.34194
-7.44446 -0.342661
-7.44434 -0.343381
-7.44421 -0.344101
-7.44409 -0.344821
-7.44397 -0.345541
-7.44385 -0.346261
-7.44373 -0.34698
-7.4436 -0.3477
-7.44348 -0.348419
-7.44336 -0.349138
-7.44324 -0.349856
-7.44312 -0.350575
-7.44299 -0.351293
-7.44287 -0.352011
-7.44275 -0.352729
-7.44263 -0.353446
-7.4425 -0.354164
-7.44238 -0.354881
-7.44226 -0.355598
-7.44214 -0.356314
-7.44202 -0.357031
-7.44189 -0.357747
-7.44177 -0.358463
-7.44165 -0.359179
-7.44153 -0.359895
-7.44141 -0.360611
-7.44128 -0.361326
-7.44116 -0.362041
-7.44104 -0.362756
-7.44092 -0.36347
-7.4408 -0.364185
-7.44067 -0.364899
-7.44055 -0.365613
-7.44043 -0.366327
-7.44031 -0.36704
-7.44019 -0.367754
-7.44006 -0.368467
-7.43994 -0.36918
-7.43982 -0.369892
-7.4397 -0.370605
-7.43958 -0.371317
-7.43945 -0.372029
-7.43933 -0.372741
-7.43921 -0.373453
-7.43909 -0.374164
-7.43896 -0.374875
-7.43884 -0.375586
-7.43872 -0.376297
-7.4386 -0.377007
-7.43848 -0.377718
-7.43835 -0.378428
-7.43823 -0.379138
-7.43811 -0.379847
-7.43799 -0.380557
-7.43787 -0.381266
-7.43774 -0.381975
-7.43762 -0.382683
-7.4375 -0.383392
-7.43738 -0.3841
-7.43726 -0.384808
-7.43713 -0.385516
-7.43701 -0.386224
-7.43689 -0.386931
-7.43677 -0.387638
-7.43665 -0.388345
-7.43652 -0.389052
-7.4364 -0.389758
-7.43628 -0.390464
-7.43616 -0.39117
-7.43604 -0.391876
-7.43591 -0.392582
-7.43579 -0.393287
-7.43567 -0.393992
-7.43555 -0.394697
-7.43542 -0.395401
-7.4353 -0.396106
-7.43518 -0.39681
-7.43506 -0.397514
-7.43494 -0.398218
-7.43481 -0.398921
-7.43469 -0.399624
-7.43457 -0.400327
-7.43445 -0.40103
-7.43433 -0.401732
-7.4342 -0.402435
-7.43408 -0.403137
-7.43396 -0.403838
-7.43384 -0.40454
-7.43372 -0.405241
-7.43359 -0.405942
-7.43347 -0.406643
-7.43335 -0.407344
-7.43323 -0.408044
-7.43311 -0.408744
-7.43298 -0.409444
-7.43286 -0.410144
-7.43274 -0.410843
-7.43262 -0.411542
-7.4325 -0.412241
-7.43237 -0.41294
-7.43225 -0.413638
-7.43213 -0.414336
-7.43201 -0.415034
-7.43188 -0.415732
-7.43176 -0.41643
-7.43164 -0.417127
-7.43152 -0.417824
-7.4314 -0.41852
-7.43127 -0.419217
-7.43115 -0.419913
-7.43103 -0.420609
-7.43091 -0.421305
-7.43079 -0.422
-7.43066 -0.422695
-7.43054 -0.42339
-7.43042 -0.424085
-7.4303 -0.42478
-7.43018 -0.425474
-7.43005 -0.426168
-7.42993 -0.426862
-7.42981 -0.427555
-7.42969 -0.428248
-7.42957 -0.428941
-7.42944 -0.429634
-7.42932 -0.430326
-7.4292 -0.431019
-7.42908 -0.431711
-7.42896 -0.432402
-7.42883 -0.433094
-7.42871 -0.433785
-7.42859 -0.434476
-7.42847 -0.435167
-7.42834 -0.435857
-7.42822 -0.436547
-7.4281 -0.437237
-7.42798 -0.437927
-7.42786 -0.438616
-7.42773 -0.439305
-7.42761 -0.439994
-7.42749 -0.440683
-7.42737 -0.441371
-7.42725 -0.442059
-7.42712 -0.442747
-7.427 -0.443435
-7.42688 -0.444122
-7.42676 -0.444809
-7.42664 -0.445496
-7.42651 -0.446183
-7.42639 -0.446869
-7.42627 -0.447555
-7.42615 -0.448241
-7.42603 -0.448926
-7.4259 -0.449611
-7.42578 -0.450296
-7.42566 -0.450981
-7.42554 -0.451665
-7.42542 -0.45235
-7.42529 -0.453033
-7.42517 -0.453717
-7.42505 -0.4544
-7.42493 -0.455084
-7.4248 -0.455766
-7.42468 -0.456449
-7.42456 -0.457131
-7.42444 -0.457813
-7.42432 -0.458495
-7.42419 -0.459177
-7.42407 -0.459858
-7.42395 -0.460539
-7.42383 -0.461219
-7.42371 -0.4619
-7.42358 -0.46258
-7.42346 -0.46326
-7.42334 -0.463939
-7.42322 -0.464619
-7.4231 -0.465298
-7.42297 -0.465976
-7.42285 -0.466655
-7.42273 -0.467333
-7.42261 -0.468011
-7.42249 -0.468689
-7.42236 -0.469366
-7.42224 -0.470043
-7.42212 -0.47072
-7.422 -0.471397
-7.42188 -0.472073
-7.42175 -0.472749
-7.42163 -0.473425
-7.42151 -0.4741
-7.42139 -0.474775
-7.42126 -0.47545
-7.42114 -0.476125
-7.42102 -0.476799
-7.4209 -0.477473
-7.42078 -0.478147
-7.42065 -0.478821
-7.42053 -0.479494
-7.42041 -0.480167
-7.42029 -0.480839
-7.42017 -0.481512
-7.42004 -0.482184
-7.41992 -0.482856
-7.4198 -0.483527
-7.41968 -0.484198
-7.41956 -0.484869
-7.41943 -0.48554
-7.41931 -0.48621
-7.41919 -0.48688
-7.41907 -0.48755
-7.41895 -0.48822
-7.41882 -0.488889
-7.4187 -0.489558
-7.41858 -0.490226
-7.41846 -0.490895
-7.41833 -0.491563
-7.41821 -0.492231
-7.41809 -0.492898
-7.41797 -0.493565
-7.41785 -0.494232
-7.41772 -0.494899
-7.4176 -0.495565
-7.41748 -0.496231
-7.41736 -0.496897
-7.41724 -0.497563
-7.41711 -0.498228
-7.41699 -0.498893
-7.41687 -0.499557
-7.41675 -0.500221
-7.41663 -0.500885
-7.4165 -0.501549
-7.41638 -0.502212
-7.41626 -0.502876
-7.41614 -0.503538
-7.41602 -0.504201
-7.41589 -0.504863
-7.41577 -0.505525
-7.41565 -0.506187
-7.41553 -0.506848
-7.41541 -0.507509
-7.41528 -0.50817
-7.41516 -0.50883
-7.41504 -0.50949
-7.41492 -0.51015
-7.41479 -0.51081
-7.41467 -0.511469
-7.41455 -0.512128
-7.41443 -0.512786
-7.41431 -0.513445
-7.41418 -0.514103
-7.41406 -0.51476
-7.41394 -0.515418
-7.41382 -0.516075
-7.4137 -0.516732
-7.41357 -0.517388
-7.41345 -0.518045
-7.41333 -0.5187
-7.41321 -0.519356
-7.41309 -0.520011
-7.41296 -0.520666
-7.41284 -0.521321
-7.41272 -0.521975
-7.4126 -0.522629
-7.41248 -0.523283
-7.41235 -0.523937
-7.41223 -0.52459
-7.41211 -0.525243
-7.41199 -0.525895
-7.41187 -0.526547
-7.41174 -0.527199
-7.41162 -0.527851
-7.4115 -0.528502
-7.41138 -0.529153
-7.41125 -0.529804
-7.41113 -0.530454
-7.41101 -0.531104
-7.41089 -0.531754
-7.41077 -0.532403
-7.41064 -0.533052
-7.41052 -0.533701
-7.4104 -0.534349
-7.41028 -0.534998
-7.41016 -0.535645
-7.41003 -0.536293
-7.40991 -0.53694
-7.40979 -0.537587
-7.40967 -0.538234
-7.40955 -0.53888
-7.40942 -0.539526
-7.4093 -0.540171
-7.40918 -0.540817
-7.40906 -0.541462
-7.40894 -0.542106
-7.40881 -0.542751
-7.40869 -0.543395
-7.40857 -0.544039
-7.40845 -0.544682
-7.40833 -0.545325
-7.4082 -0.545968
-7.40808 -0.54661
-7.40796 -0.547252
-7.40784 -0.547894
-7.40771 -0.548536
-7.40759 -0.549177
-7.40747 -0.549817
-7.40735 -0.550458
-7.40723 -0.551098
-7.4071 -0.551738
-7.40698 -0.552378
-7.40686 -0.553017
-7.40674 -0.553656
-7.40662 -0.554294
-7.40649 -0.554932
-7.40637 -0.55557
-7.40625 -0.556208
-7.40613 -0.556845
-7.40601 -0.557482
-7.40588 -0.558119
-7.40576 -0.558755
-7.40564 -0.559391
-7.40552 -0.560026
-7.4054 -0.560662
-7.40527 -0.561297
-7.40515 -0.561931
-7.40503 -0.562565
-7.40491 -0.563199
-7.40479 -0.563833
-7.40466 -0.564466
-7.40454 -0.565099
-7.40442 -0.565732
-7.4043 -0.566364
-7.40417 -0.566996
-7.40405 -0.567628
-7.40393 -0.568259
-7.40381 -0.56889
-7.40369 -0.569521
-7.40356 -0.570151
-7.40344 -0.570781
-7.40332 -0.57141
-7.4032 -0.57204
-7.40308 -0.572669
-7.40295 -0.573297
-7.40283 -0.573925
-7.40271 -0.574553
-7.40259 -0.575181
-7.40247 -0.575808
-7.40234 -0.576435
-7.40222 -0.577062
-7.4021 -0.577688
-7.40198 -0.578314
-7.40186 -0.578939
-7.40173 -0.579565
-7.40161 -0.580189
-7.40149 -0.580814
-7.40137 -0.581438
-7.40125 -0.582062
-7.40112 -0.582685
-7.401 -0.583309
-7.40088 -0.583931
-7.40076 -0.584554
-7.40063 -0.585176
-7.40051 -0.585798
-7.40039 -0.586419
-7.40027 -0.58704
-7.40015 -0.587661
-7.40002 -0.588282
-7.3999 -0.588902
-7.39978 -0.589521
-7.39966 -0.590141
-7.39954 -0.59076
-7.39941 -0.591378
-7.39929 -0.591997
-7.39917 -0.592615
-7.39905 -0.593232
-7.39893 -0.59385
-7.3988 -0.594466
-7.39868 -0.595083
-7.39856 -0.595699
-7.39844 -0.596315
-7.39832 -0.596931
-7.39819 -0.597546
-7.39807 -0.598161
-7.39795 -0.598775
-7.39783 -0.599389
-7.39771 -0.600003
-7.39758 -0.600616
-7.39746 -0.60123
-7.39734 -0.601842
-7.39722 -0.602455
-7.39709 -0.603067
-7.39697 -0.603678
-7.39685 -0.60429
-7.39673 -0.6049
-7.39661 -0.605511
-7.39648 -0.606121
-7.39636 -0.606731
-7.39624 -0.607341
-7.39612 -0.60795
-7.396 -0.608559
-7.39587 -0.609167
-7.39575 -0.609775
-7.39563 -0.610383
-7.39551 -0.61099
-7.39539 -0.611597
-7.39526 -0.612204
-7.39514 -0.61281
-7.39502 -0.613416
-7.3949 -0.614022
-7.39478 -0.614627
-7.39465 -0.615232
-7.39453 -0.615836
-7.39441 -0.61644
-7.39429 -0.617044
-7.39417 -0.617647
-7.39404 -0.61825
-7.39392 -0.618853
-7.3938 -0.619455
-7.39368 -0.620057
-7.39355 -0.620659
-7.39343 -0.62126
-7.39331 -0.621861
-7.39319 -0.622461
-7.39307 -0.623061
-7.39294 -0.623661
-7.39282 -0.62426
-7.3927 -0.624859
-7.39258 -0.625458
-7.39246 -0.626056
-7.39233 -0.626654
-7.39221 -0.627252
-7.39209 -0.627849
-7.39197 -0.628446
-7.39185 -0.629042
-7.39172 -0.629638
-7.3916 -0.630234
-7.39148 -0.630829
-7.39136 -0.631424
-7.39124 -0.632019
-7.39111 -0.632613
-7.39099 -0.633207
-7.39087 -0.6338
-7.39075 -0.634393
-7.39063 -0.634986
-7.3905 -0.635578
-7.39038 -0.63617
-7.39026 -0.636762
-7.39014 -0.637353
-7.39001 -0.637944
-7.38989 -0.638534
-7.38977 -0.639124
-7.38965 -0.639714
-7.38953 -0.640303
-7.3894 -0.640892
-7.38928 -0.641481
-7.38916 -0.642069
-7.38904 -0.642657
-7.38892 -0.643244
-7.38879 -0.643832
-7.38867 -0.644418
-7.38855 -0.645005
-7.38843 -0.64559
-7.38831 -0.646176
-7.38818 -0.646761
-7.38806 -0.647346
-7.38794 -0.64793
-7.38782 -0.648514
-7.3877 -0.649098
-7.38757 -0.649681
-7.38745 -0.650264
-7.38733 -0.650847
-7.38721 -0.651429
-7.38708 -0.652011
-7.38696 -0.652592
-7.38684 -0.653173
-7.38672 -0.653753
-7.3866 -0.654334
-7.38647 -0.654913
-7.38635 -0.655493
-7.38623 -0.656072
-7.38611 -0.656651
-7.38599 -0.657229
-7.38586 -0.657807
-7.38574 -0.658384
-7.38562 -0.658961
-7.3855 -0.659538
-7.38538 -0.660114
-7.38525 -0.66069
-7.38513 -0.661266
-7.38501 -0.661841
-7.38489 -0.662416
-7.38477 -0.66299
-7.38464 -0.663564
-7.38452 -0.664138
-7.3844 -0.664711
-7.38428 -0.665284
-7.38416 -0.665856
-7.38403 -0.666428
-7.38391 -0.667
-7.38379 -0.667571
-7.38367 -0.668142
-7.38354 -0.668713
-7.38342 -0.669283
-7.3833 -0.669852
-7.38318 -0.670422
-7.38306 -0.67099
-7.38293 -0.671559
-7.38281 -0.672127
-7.38269 -0.672695
-7.38257 -0.673262
-7.38245 -0.673829
-7.38232 -0.674396
-7.3822 -0.674962
-7.38208 -0.675527
-7.38196 -0.676093
-7.38184 -0.676658
-7.38171 -0.677222
-7.38159 -0.677786
-7.38147 -0.67835
-7.38135 -0.678913
-7.38123 -0.679476
-7.3811 -0.680039
-7.38098 -0.680601
-7.38086 -0.681163
-7.38074 -0.681724
-7.38062 -0.682285
-7.38049 -0.682846
-7.38037 -0.683406
-7.38025 -0.683965
-7.38013 -0.684525
-7.38 -0.685084
-7.37988 -0.685642
-7.37976 -0.6862
-7.37964 -0.686758
-7.37952 -0.687315
-7.37939 -0.687872
-7.37927 -0.688429
-7.37915 -0.688985
-7.37903 -0.689541
-7.37891 -0.690096
-7.37878 -0.690651
-7.37866 -0.691205
-7.37854 -0.691759
-7.37842 -0.692313
-7.3783 -0.692866
-7.37817 -0.693419
-7.37805 -0.693971
-7.37793 -0.694523
-7.37781 -0.695075
-7.37769 -0.695626
-7.37756 -0.696177
-7.37744 -0.696728
-7.37732 -0.697278
-7.3772 -0.697827
-7.37708 -0.698376
-7.37695 -0.698925
-7.37683 -0.699473
-7.37671 -0.700021
-7.37659 -0.700569
-7.37646 -0.701116
-7.37634 -0.701663
-7.37622 -0.702209
-7.3761 -0.702755
-7.37598 -0.7033
-7.37585 -0.703845
-7.37573 -0.70439
-7.37561 -0.704934
-7.37549 -0.705478
-7.37537 -0.706021
-7.37524 -0.706564
-7.37512 -0.707107
-7.375 -0.707649
-7.37488 -0.708191
-7.37476 -0.708732
-7.37463 -0.709273
-7.37451 -0.709813
-7.37439 -0.710353
-7.37427 -0.710893
-7.37415 -0.711432
-7.37402 -0.711971
-7.3739 -0.712509
-7.37378 -0.713047
-7.37366 -0.713585
-7.37354 -0.714122
-7.37341 -0.714659
-7.37329 -0.715195
-7.37317 -0.715731
-7.37305 -0.716266
-7.37292 -0.716801
-7.3728 -0.717336
-7.37268 -0.71787
-7.37256 -0.718404
-7.37244 -0.718937
-7.37231 -0.71947
-7.37219 -0.720003
-7.37207 -0.720535
-7.37195 -0.721066
-7.37183 -0.721597
-7.3717 -0.722128
-7.37158 -0.722659
-7.37146 -0.723188
-7.37134 -0.723718
-7.37122 -0.724247
-7.37109 -0.724776
-7.37097 -0.725304
