# t[sec] Amplitude 
-37.5 1280
-37.499 1279.98
-37.498 1279.9
-37.4971 1279.78
-37.4961 1279.61
-37.4951 1279.4
-37.4941 1279.13
-37.4932 1278.82
-37.4922 1278.46
-37.4912 1278.05
-37.4902 1277.6
-37.4893 1277.09
-37.4883 1276.54
-37.4873 1275.94
-37.4863 1275.3
-37.4854 1274.6
-37.4844 1273.86
-37.4834 1273.07
-37.4824 1272.24
-37.4814 1271.35
-37.4805 1270.42
-37.4795 1269.45
-37.4785 1268.42
-37.4775 1267.35
-37.4766 1266.23
-37.4756 1265.07
-37.4746 1263.85
-37.4736 1262.6
-37.4727 1261.29
-37.4717 1259.94
-37.4707 1258.54
-37.4697 1257.1
-37.4688 1255.61
-37.4678 1254.07
-37.4668 1252.49
-37.4658 1250.86
-37.4648 1249.19
-37.4639 1247.47
-37.4629 1245.7
-37.4619 1243.89
-37.4609 1242.04
-37.46 1240.14
-37.459 1238.19
-37.458 1236.2
-37.457 1234.16
-37.4561 1232.08
-37.4551 1229.95
-37.4541 1227.78
-37.4531 1225.57
-37.4521 1223.31
-37.4512 1221.01
-37.4502 1218.66
-37.4492 1216.27
-37.4482 1213.83
-37.4473 1211.35
-37.4463 1208.83
-37.4453 1206.26
-37.4443 1203.65
-37.4434 1201
-37.4424 1198.3
-37.4414 1195.57
-37.4404 1192.78
-37.4395 1189.96
-37.4385 1187.09
-37.4375 1184.18
-37.4365 1181.23
-37.4355 1178.24
-37.4346 1175.2
-37.4336 1172.12
-37.4326 1169.01
-37.4316 1165.84
-37.4307 1162.64
-37.4297 1159.4
-37.4287 1156.12
-37.4277 1152.79
-37.4268 1149.43
-37.4258 1146.02
-37.4248 1142.57
-37.4238 1139.09
-37.4229 1135.56
-37.4219 1131.99
-37.4209 1128.39
-37.4199 1124.74
-37.4189 1121.05
-37.418 1117.33
-37.417 1113.57
-37.416 1109.76
-37.415 1105.92
-37.4141 1102.04
-37.4131 1098.12
-37.4121 1094.17
-37.4111 1090.17
-37.4102 1086.14
-37.4092 1082.07
-37.4082 1077.96
-37.4072 1073.82
-37.4063 1069.64
-37.4053 1065.42
-37.4043 1061.17
-37.4033 1056.87
-37.4023 1052.55
-37.4014 1048.18
-37.4004 1043.78
-37.3994 1039.35
-37.3984 1034.88
-37.3975 1030.37
-37.3965 1025.83
-37.3955 1021.25
-37.3945 1016.64
-37.3936 1012
-37.3926 1007.32
-37.3916 1002.6
-37.3906 997.855
-37.3896 993.074
-37.3887 988.259
-37.3877 983.411
-37.3867 978.53
-37.3857 973.616
-37.3848 968.669
-37.3838 963.69
-37.3828 958.679
-37.3818 953.636
-37.3809 948.561
-37.3799 943.454
-37.3789 938.317
-37.3779 933.148
-37.377 927.948
-37.376 922.718
-37.375 917.457
-37.374 912.166
-37.373 906.845
-37.3721 901.494
-37.3711 896.114
-37.3701 890.704
-37.3691 885.266
-37.3682 879.798
-37.3672 874.302
-37.3662 868.778
-37.3652 863.225
-37.3643 857.645
-37.3633 852.037
-37.3623 846.401
-37.3613 840.738
-37.3604 835.048
-37.3594 829.332
-37.3584 823.589
-37.3574 817.82
-37.3564 812.025
-37.3555 806.204
-37.3545 800.357
-37.3535 794.486
-37.3525 788.589
-37.3516 782.667
-37.3506 776.721
-37.3496 770.751
-37.3486 764.756
-37.3477 758.738
-37.3467 752.697
-37.3457 746.631
-37.3447 740.543
-37.3438 734.432
-37.3428 728.299
-37.3418 722.143
-37.3408 715.965
-37.3398 709.766
-37.3389 703.545
-37.3379 697.302
-37.3369 691.039
-37.3359 684.755
-37.335 678.45
-37.334 672.125
-37.333 665.78
-37.332 659.415
-37.3311 653.031
-37.3301 646.627
-37.3291 640.205
-37.3281 633.764
-37.3271 627.304
-37.3262 620.827
-37.3252 614.331
-37.3242 607.817
-37.3232 601.287
-37.3223 594.739
-37.3213 588.174
-37.3203 581.593
-37.3193 574.995
-37.3184 568.381
-37.3174 561.751
-37.3164 555.106
-37.3154 548.446
-37.3145 541.77
-37.3135 535.08
-37.3125 528.375
-37.3115 521.656
-37.3105 514.923
-37.3096 508.176
-37.3086 501.416
-37.3076 494.643
-37.3066 487.857
-37.3057 481.058
-37.3047 474.247
-37.3037 467.424
-37.3027 460.589
-37.3018 453.743
-37.3008 446.885
-37.2998 440.016
-37.2988 433.136
-37.2979 426.247
-37.2969 419.346
-37.2959 412.436
-37.2949 405.517
-37.2939 398.588
-37.293 391.649
-37.292 384.702
-37.291 377.747
-37.29 370.783
-37.2891 363.811
-37.2881 356.831
-37.2871 349.844
-37.2861 342.85
-37.2852 335.849
-37.2842 328.841
-37.2832 321.827
-37.2822 314.806
-37.2813 307.78
-37.2803 300.748
-37.2793 293.711
-37.2783 286.669
-37.2773 279.622
-37.2764 272.571
-37.2754 265.515
-37.2744 258.456
-37.2734 251.393
-37.2725 244.326
-37.2715 237.256
-37.2705 230.184
-37.2695 223.109
-37.2686 216.031
-37.2676 208.952
-37.2666 201.87
-37.2656 194.788
-37.2646 187.704
-37.2637 180.619
-37.2627 173.533
-37.2617 166.447
-37.2607 159.361
-37.2598 152.275
-37.2588 145.189
-37.2578 138.104
-37.2568 131.02
-37.2559 123.937
-37.2549 116.856
-37.2539 109.776
-37.2529 102.699
-37.252 95.6231
-37.251 88.5502
-37.25 81.4802
-37.249 74.4132
-37.248 67.3495
-37.2471 60.2894
-37.2461 53.2332
-37.2451 46.1811
-37.2441 39.1335
-37.2432 32.0904
-37.2422 25.0523
-37.2412 18.0194
-37.2402 10.992
-37.2393 3.97021
-37.2383 -3.04558
-37.2373 -10.0551
-37.2363 -17.0582
-37.2354 -24.0545
-37.2344 -31.0438
-37.2334 -38.0258
-37.2324 -45.0003
-37.2314 -51.9669
-37.2305 -58.9256
-37.2295 -65.8759
-37.2285 -72.8176
-37.2275 -79.7506
-37.2266 -86.6744
-37.2256 -93.589
-37.2246 -100.494
-37.2236 -107.389
-37.2227 -114.274
-37.2217 -121.149
-37.2207 -128.013
-37.2197 -134.866
-37.2188 -141.708
-37.2178 -148.539
-37.2168 -155.358
-37.2158 -162.165
-37.2148 -168.96
-37.2139 -175.743
-37.2129 -182.513
-37.2119 -189.271
-37.2109 -196.015
-37.21 -202.746
-37.209 -209.464
-37.208 -216.167
-37.207 -222.857
-37.2061 -229.532
-37.2051 -236.193
-37.2041 -242.839
-37.2031 -249.469
-37.2021 -256.085
-37.2012 -262.685
-37.2002 -269.269
-37.1992 -275.838
-37.1982 -282.39
-37.1973 -288.926
-37.1963 -295.445
-37.1953 -301.947
-37.1943 -308.432
-37.1934 -314.9
-37.1924 -321.35
-37.1914 -327.782
-37.1904 -334.196
-37.1895 -340.592
-37.1885 -346.969
-37.1875 -353.328
-37.1865 -359.667
-37.1855 -365.987
-37.1846 -372.288
-37.1836 -378.57
-37.1826 -384.831
-37.1816 -391.073
-37.1807 -397.294
-37.1797 -403.494
-37.1787 -409.674
-37.1777 -415.833
-37.1768 -421.971
-37.1758 -428.087
-37.1748 -434.182
-37.1738 -440.254
-37.1729 -446.305
-37.1719 -452.334
-37.1709 -458.34
-37.1699 -464.324
-37.1689 -470.284
-37.168 -476.222
-37.167 -482.136
-37.166 -488.027
-37.165 -493.895
-37.1641 -499.738
-37.1631 -505.557
-37.1621 -511.352
-37.1611 -517.123
-37.1602 -522.868
-37.1592 -528.589
-37.1582 -534.285
-37.1572 -539.956
-37.1563 -545.601
-37.1553 -551.221
-37.1543 -556.814
-37.1533 -562.382
-37.1523 -567.924
-37.1514 -573.439
-37.1504 -578.927
-37.1494 -584.389
-37.1484 -589.824
-37.1475 -595.231
-37.1465 -600.612
-37.1455 -605.964
-37.1445 -611.29
-37.1436 -616.587
-37.1426 -621.856
-37.1416 -627.097
-37.1406 -632.31
-37.1396 -637.494
-37.1387 -642.649
-37.1377 -647.776
-37.1367 -652.873
-37.1357 -657.942
-37.1348 -662.981
-37.1338 -667.99
-37.1328 -672.969
-37.1318 -677.919
-37.1309 -682.839
-37.1299 -687.728
-37.1289 -692.587
-37.1279 -697.416
-37.127 -702.214
-37.126 -706.981
-37.125 -711.717
-37.124 -716.422
-37.123 -721.095
-37.1221 -725.738
-37.1211 -730.348
-37.1201 -734.927
-37.1191 -739.474
-37.1182 -743.989
-37.1172 -748.472
-37.1162 -752.923
-37.1152 -757.341
-37.1143 -761.726
-37.1133 -766.079
-37.1123 -770.399
-37.1113 -774.686
-37.1104 -778.94
-37.1094 -783.161
-37.1084 -787.348
-37.1074 -791.502
-37.1064 -795.622
-37.1055 -799.708
-37.1045 -803.761
-37.1035 -807.779
-37.1025 -811.763
-37.1016 -815.713
-37.1006 -819.629
-37.0996 -823.51
-37.0986 -827.357
-37.0977 -831.169
-37.0967 -834.946
-37.0957 -838.688
-37.0947 -842.395
-37.0938 -846.067
-37.0928 -849.704
-37.0918 -853.305
-37.0908 -856.871
-37.0898 -860.401
-37.0889 -863.896
-37.0879 -867.355
-37.0869 -870.778
-37.0859 -874.165
-37.085 -877.516
-37.084 -880.83
-37.083 -884.109
-37.082 -887.351
-37.0811 -890.557
-37.0801 -893.726
-37.0791 -896.859
-37.0781 -899.955
-37.0771 -903.014
-37.0762 -906.036
-37.0752 -909.021
-37.0742 -911.97
-37.0732 -914.881
-37.0723 -917.755
-37.0713 -920.592
-37.0703 -923.391
-37.0693 -926.153
-37.0684 -928.878
-37.0674 -931.565
-37.0664 -934.215
-37.0654 -936.826
-37.0645 -939.401
-37.0635 -941.937
-37.0625 -944.436
-37.0615 -946.896
-37.0605 -949.319
-37.0596 -951.703
-37.0586 -954.05
-37.0576 -956.358
-37.0566 -958.629
-37.0557 -960.861
-37.0547 -963.054
-37.0537 -965.21
-37.0527 -967.327
-37.0518 -969.405
-37.0508 -971.446
-37.0498 -973.447
-37.0488 -975.41
-37.0479 -977.335
-37.0469 -979.221
-37.0459 -981.068
-37.0449 -982.877
-37.0439 -984.647
-37.043 -986.378
-37.042 -988.07
-37.041 -989.724
-37.04 -991.338
-37.0391 -992.914
-37.0381 -994.451
-37.0371 -995.95
-37.0361 -997.409
-37.0352 -998.829
-37.0342 -1000.21
-37.0332 -1001.55
-37.0322 -1002.86
-37.0313 -1004.12
-37.0303 -1005.35
-37.0293 -1006.53
-37.0283 -1007.68
-37.0273 -1008.79
-37.0264 -1009.86
-37.0254 -1010.89
-37.0244 -1011.88
-37.0234 -1012.83
-37.0225 -1013.74
-37.0215 -1014.62
-37.0205 -1015.45
-37.0195 -1016.25
-37.0186 -1017.01
-37.0176 -1017.72
-37.0166 -1018.4
-37.0156 -1019.04
-37.0146 -1019.65
-37.0137 -1020.21
-37.0127 -1020.73
-37.0117 -1021.21
-37.0107 -1021.66
-37.0098 -1022.07
-37.0088 -1022.43
-37.0078 -1022.76
-37.0068 -1023.05
-37.0059 -1023.3
-37.0049 -1023.52
-37.0039 -1023.69
-37.0029 -1023.83
-37.002 -1023.92
-37.001 -1023.98
-37 -1024
-36.999 -1023.98
-36.998 -1023.92
-36.9971 -1023.83
-36.9961 -1023.69
-36.9951 -1023.52
-36.9941 -1023.31
-36.9932 -1023.06
-36.9922 -1022.77
-36.9912 -1022.44
-36.9902 -1022.08
-36.9893 -1021.68
-36.9883 -1021.24
-36.9873 -1020.76
-36.9863 -1020.24
-36.9854 -1019.69
-36.9844 -1019.09
-36.9834 -1018.46
-36.9824 -1017.8
-36.9814 -1017.09
-36.9805 -1016.35
-36.9795 -1015.57
-36.9785 -1014.75
-36.9775 -1013.89
-36.9766 -1013
-36.9756 -1012.07
-36.9746 -1011.11
-36.9736 -1010.1
-36.9727 -1009.06
-36.9717 -1007.98
-36.9707 -1006.87
-36.9697 -1005.72
-36.9688 -1004.53
-36.9678 -1003.3
-36.9668 -1002.04
-36.9658 -1000.74
-36.9648 -999.409
-36.9639 -998.038
-36.9629 -996.631
-36.9619 -995.188
-36.9609 -993.709
-36.96 -992.194
-36.959 -990.644
-36.958 -989.057
-36.957 -987.435
-36.9561 -985.778
-36.9551 -984.085
-36.9541 -982.356
-36.9531 -980.593
-36.9521 -978.794
-36.9512 -976.96
-36.9502 -975.091
-36.9492 -973.188
-36.9482 -971.25
-36.9473 -969.277
-36.9463 -967.269
-36.9453 -965.228
-36.9443 -963.152
-36.9434 -961.041
-36.9424 -958.897
-36.9414 -956.719
-36.9404 -954.507
-36.9395 -952.261
-36.9385 -949.982
-36.9375 -947.67
-36.9365 -945.323
-36.9355 -942.944
-36.9346 -940.532
-36.9336 -938.087
-36.9326 -935.609
-36.9316 -933.098
-36.9307 -930.554
-36.9297 -927.979
-36.9287 -925.37
-36.9277 -922.73
-36.9268 -920.058
-36.9258 -917.353
-36.9248 -914.617
-36.9238 -911.85
-36.9229 -909.05
-36.9219 -906.22
-36.9209 -903.358
-36.9199 -900.465
-36.9189 -897.541
-36.918 -894.587
-36.917 -891.601
-36.916 -888.586
-36.915 -885.54
-36.9141 -882.463
-36.9131 -879.357
-36.9121 -876.22
-36.9111 -873.054
-36.9102 -869.858
-36.9092 -866.633
-36.9082 -863.379
-36.9072 -860.095
-36.9063 -856.782
-36.9053 -853.441
-36.9043 -850.07
-36.9033 -846.672
-36.9023 -843.244
-36.9014 -839.789
-36.9004 -836.306
-36.8994 -832.794
-36.8984 -829.255
-36.8975 -825.689
-36.8965 -822.095
-36.8955 -818.473
-36.8945 -814.825
-36.8936 -811.15
-36.8926 -807.448
-36.8916 -803.719
-36.8906 -799.965
-36.8896 -796.183
-36.8887 -792.376
-36.8877 -788.543
-36.8867 -784.684
-36.8857 -780.8
-36.8848 -776.89
-36.8838 -772.955
-36.8828 -768.996
-36.8818 -765.011
-36.8809 -761.001
-36.8799 -756.968
-36.8789 -752.909
-36.8779 -748.827
-36.877 -744.721
-36.876 -740.591
-36.875 -736.438
-36.874 -732.261
-36.873 -728.061
-36.8721 -723.837
-36.8711 -719.592
-36.8701 -715.323
-36.8691 -711.032
-36.8682 -706.719
-36.8672 -702.383
-36.8662 -698.026
-36.8652 -693.647
-36.8643 -689.246
-36.8633 -684.824
-36.8623 -680.381
-36.8613 -675.917
-36.8604 -671.433
-36.8594 -666.927
-36.8584 -662.402
-36.8574 -657.856
-36.8564 -653.29
-36.8555 -648.705
-36.8545 -644.099
-36.8535 -639.475
-36.8525 -634.831
-36.8516 -630.168
-36.8506 -625.487
-36.8496 -620.787
-36.8486 -616.068
-36.8477 -611.331
-36.8467 -606.577
-36.8457 -601.804
-36.8447 -597.014
-36.8438 -592.207
-36.8428 -587.382
-36.8418 -582.54
-36.8408 -577.682
-36.8398 -572.807
-36.8389 -567.915
-36.8379 -563.007
-36.8369 -558.084
-36.8359 -553.144
-36.835 -548.189
-36.834 -543.219
-36.833 -538.234
-36.832 -533.233
-36.8311 -528.218
-36.8301 -523.188
-36.8291 -518.144
-36.8281 -513.086
-36.8271 -508.014
-36.8262 -502.929
-36.8252 -497.829
-36.8242 -492.717
-36.8232 -487.591
-36.8223 -482.453
-36.8213 -477.302
-36.8203 -472.139
-36.8193 -466.963
-36.8184 -461.775
-36.8174 -456.575
-36.8164 -451.364
-36.8154 -446.142
-36.8145 -440.908
-36.8135 -435.663
-36.8125 -430.408
-36.8115 -425.142
-36.8105 -419.866
-36.8096 -414.579
-36.8086 -409.283
-36.8076 -403.977
-36.8066 -398.662
-36.8057 -393.337
-36.8047 -388.003
-36.8037 -382.661
-36.8027 -377.31
-36.8018 -371.95
-36.8008 -366.582
-36.7998 -361.206
-36.7988 -355.823
-36.7979 -350.432
-36.7969 -345.034
-36.7959 -339.628
-36.7949 -334.216
-36.7939 -328.797
-36.793 -323.371
-36.792 -317.939
-36.791 -312.501
-36.79 -307.057
-36.7891 -301.608
-36.7881 -296.153
-36.7871 -290.693
-36.7861 -285.229
-36.7852 -279.759
-36.7842 -274.285
-36.7832 -268.806
-36.7822 -263.323
-36.7813 -257.837
-36.7803 -252.347
-36.7793 -246.853
-36.7783 -241.356
-36.7773 -235.856
-36.7764 -230.353
-36.7754 -224.848
-36.7744 -219.34
-36.7734 -213.83
-36.7725 -208.317
-36.7715 -202.804
-36.7705 -197.288
-36.7695 -191.771
-36.7686 -186.254
-36.7676 -180.735
-36.7666 -175.215
-36.7656 -169.695
-36.7646 -164.175
-36.7637 -158.655
-36.7627 -153.134
-36.7617 -147.615
-36.7607 -142.095
-36.7598 -136.577
-36.7588 -131.059
-36.7578 -125.543
-36.7568 -120.028
-36.7559 -114.515
-36.7549 -109.003
-36.7539 -103.494
-36.7529 -97.9864
-36.752 -92.4816
-36.751 -86.9795
-36.75 -81.4802
-36.749 -75.984
-36.748 -70.491
-36.7471 -65.0016
-36.7461 -59.5158
-36.7451 -54.0339
-36.7441 -48.5561
-36.7432 -43.0826
-36.7422 -37.6137
-36.7412 -32.1494
-36.7402 -26.6901
-36.7393 -21.2358
-36.7383 -15.7869
-36.7373 -10.3436
-36.7363 -4.90592
-36.7354 0.525797
-36.7344 5.95139
-36.7334 11.3706
-36.7324 16.7834
-36.7314 22.1894
-36.7305 27.5884
-36.7295 32.9804
-36.7285 38.365
-36.7275 43.7421
-36.7266 49.1115
-36.7256 54.4729
-36.7246 59.8262
-36.7236 65.1713
-36.7227 70.5078
-36.7217 75.8356
-36.7207 81.1545
-36.7197 86.4644
-36.7188 91.7649
-36.7178 97.056
-36.7168 102.337
-36.7158 107.609
-36.7148 112.87
-36.7139 118.122
-36.7129 123.363
-36.7119 128.593
-36.7109 133.812
-36.71 139.021
-36.709 144.218
-36.708 149.404
-36.707 154.578
-36.7061 159.741
-36.7051 164.892
-36.7041 170.03
-36.7031 175.157
-36.7021 180.27
-36.7012 185.372
-36.7002 190.46
-36.6992 195.535
-36.6982 200.598
-36.6973 205.646
-36.6963 210.682
-36.6953 215.703
-36.6943 220.711
-36.6934 225.704
-36.6924 230.684
-36.6914 235.649
-36.6904 240.599
-36.6895 245.534
-36.6885 250.455
-36.6875 255.361
-36.6865 260.251
-36.6855 265.126
-36.6846 269.985
-36.6836 274.828
-36.6826 279.655
-36.6816 284.467
-36.6807 289.262
-36.6797 294.04
-36.6787 298.802
-36.6777 303.547
-36.6768 308.275
-36.6758 312.986
-36.6748 317.68
-36.6738 322.357
-36.6729 327.015
-36.6719 331.656
-36.6709 336.28
-36.6699 340.885
-36.6689 345.472
-36.668 350.04
-36.667 354.59
-36.666 359.122
-36.665 363.634
-36.6641 368.128
-36.6631 372.602
-36.6621 377.057
-36.6611 381.493
-36.6602 385.909
-36.6592 390.306
-36.6582 394.682
-36.6572 399.039
-36.6563 403.375
-36.6553 407.691
-36.6543 411.987
-36.6533 416.262
-36.6523 420.517
-36.6514 424.75
-36.6504 428.963
-36.6494 433.154
-36.6484 437.325
-36.6475 441.473
-36.6465 445.601
-36.6455 449.706
-36.6445 453.79
-36.6436 457.852
-36.6426 461.892
-36.6416 465.91
-36.6406 469.905
-36.6396 473.878
-36.6387 477.829
-36.6377 481.756
-36.6367 485.661
-36.6357 489.543
-36.6348 493.402
-36.6338 497.238
-36.6328 501.05
-36.6318 504.839
-36.6309 508.605
-36.6299 512.347
-36.6289 516.065
-36.6279 519.759
-36.627 523.429
-36.626 527.076
-36.625 530.698
-36.624 534.295
-36.623 537.868
-36.6221 541.417
-36.6211 544.941
-36.6201 548.44
-36.6191 551.915
-36.6182 555.364
-36.6172 558.789
-36.6162 562.188
-36.6152 565.562
-36.6143 568.911
-36.6133 572.234
-36.6123 575.531
-36.6113 578.803
-36.6104 582.05
-36.6094 585.27
-36.6084 588.465
-36.6074 591.633
-36.6064 594.775
-36.6055 597.891
-36.6045 600.981
-36.6035 604.045
-36.6025 607.082
-36.6016 610.092
-36.6006 613.076
-36.5996 616.033
-36.5986 618.964
-36.5977 621.867
-36.5967 624.744
-36.5957 627.593
-36.5947 630.416
-36.5938 633.211
-36.5928 635.979
-36.5918 638.72
-36.5908 641.433
-36.5898 644.119
-36.5889 646.777
-36.5879 649.408
-36.5869 652.011
-36.5859 654.586
-36.585 657.134
-36.584 659.653
-36.583 662.145
-36.582 664.609
-36.5811 667.045
-36.5801 669.452
-36.5791 671.832
-36.5781 674.183
-36.5771 676.506
-36.5762 678.8
-36.5752 681.067
-36.5742 683.304
-36.5732 685.514
-36.5723 687.694
-36.5713 689.846
-36.5703 691.97
-36.5693 694.065
-36.5684 696.131
-36.5674 698.168
-36.5664 700.177
-36.5654 702.157
-36.5645 704.108
-36.5635 706.029
-36.5625 707.922
-36.5615 709.786
-36.5605 711.621
-36.5596 713.427
-36.5586 715.204
-36.5576 716.951
-36.5566 718.67
-36.5557 720.359
-36.5547 722.019
-36.5537 723.65
-36.5527 725.251
-36.5518 726.824
-36.5508 728.366
-36.5498 729.88
-36.5488 731.364
-36.5479 732.819
-36.5469 734.244
-36.5459 735.64
-36.5449 737.007
-36.5439 738.344
-36.543 739.651
-36.542 740.929
-36.541 742.178
-36.54 743.397
-36.5391 744.586
-36.5381 745.746
-36.5371 746.877
-36.5361 747.978
-36.5352 749.049
-36.5342 750.091
-36.5332 751.104
-36.5322 752.086
-36.5313 753.04
-36.5303 753.963
-36.5293 754.857
-36.5283 755.722
-36.5273 756.557
-36.5264 757.363
-36.5254 758.139
-36.5244 758.885
-36.5234 759.602
-36.5225 760.289
-36.5215 760.947
-36.5205 761.576
-36.5195 762.175
-36.5186 762.745
-36.5176 763.285
-36.5166 763.795
-36.5156 764.277
-36.5146 764.729
-36.5137 765.151
-36.5127 765.545
-36.5117 765.909
-36.5107 766.243
-36.5098 766.549
-36.5088 766.825
-36.5078 767.072
-36.5068 767.29
-36.5059 767.478
-36.5049 767.638
-36.5039 767.768
-36.5029 767.87
-36.502 767.942
-36.501 767.985
-36.5 768
-36.499 767.985
-36.498 767.942
-36.4971 767.87
-36.4961 767.769
-36.4951 767.639
-36.4941 767.481
-36.4932 767.293
-36.4922 767.078
-36.4912 766.833
-36.4902 766.56
-36.4893 766.259
-36.4883 765.929
-36.4873 765.571
-36.4863 765.185
-36.4854 764.77
-36.4844 764.327
-36.4834 763.856
-36.4824 763.356
-36.4814 762.829
-36.4805 762.273
-36.4795 761.69
-36.4785 761.079
-36.4775 760.44
-36.4766 759.773
-36.4756 759.078
-36.4746 758.356
-36.4736 757.606
-36.4727 756.829
-36.4717 756.025
-36.4707 755.192
-36.4697 754.333
-36.4688 753.446
-36.4678 752.533
-36.4668 751.592
-36.4658 750.624
-36.4648 749.629
-36.4639 748.607
-36.4629 747.559
-36.4619 746.483
-36.4609 745.381
-36.46 744.253
-36.459 743.098
-36.458 741.916
-36.457 740.709
-36.4561 739.475
-36.4551 738.214
-36.4541 736.928
-36.4531 735.616
-36.4521 734.278
-36.4512 732.914
-36.4502 731.524
-36.4492 730.109
-36.4482 728.668
-36.4473 727.201
-36.4463 725.709
-36.4453 724.192
-36.4443 722.65
-36.4434 721.083
-36.4424 719.49
-36.4414 717.873
-36.4404 716.231
-36.4395 714.564
-36.4385 712.872
-36.4375 711.156
-36.4365 709.416
-36.4355 707.651
-36.4346 705.862
-36.4336 704.049
-36.4326 702.212
-36.4316 700.351
-36.4307 698.466
-36.4297 696.557
-36.4287 694.625
-36.4277 692.669
-36.4268 690.69
-36.4258 688.688
-36.4248 686.663
-36.4238 684.614
-36.4229 682.542
-36.4219 680.448
-36.4209 678.331
-36.4199 676.191
-36.4189 674.029
-36.418 671.844
-36.417 669.638
-36.416 667.409
-36.415 665.158
-36.4141 662.885
-36.4131 660.59
-36.4121 658.273
-36.4111 655.935
-36.4102 653.576
-36.4092 651.195
-36.4082 648.793
-36.4072 646.37
-36.4063 643.926
-36.4053 641.461
-36.4043 638.976
-36.4033 636.469
-36.4023 633.943
-36.4014 631.396
-36.4004 628.829
-36.3994 626.241
-36.3984 623.634
-36.3975 621.007
-36.3965 618.36
-36.3955 615.694
-36.3945 613.008
-36.3936 610.303
-36.3926 607.579
-36.3916 604.836
-36.3906 602.074
-36.3896 599.293
-36.3887 596.493
-36.3877 593.675
-36.3867 590.839
-36.3857 587.984
-36.3848 585.111
-36.3838 582.221
-36.3828 579.312
-36.3818 576.386
-36.3809 573.442
-36.3799 570.481
-36.3789 567.502
-36.3779 564.507
-36.377 561.494
-36.376 558.464
-36.375 555.418
-36.374 552.356
-36.373 549.276
-36.3721 546.181
-36.3711 543.069
-36.3701 539.942
-36.3691 536.798
-36.3682 533.639
